Sl. No,Polling Station No,CHANDRASEKAR DURAI. INC,P BALARAMAN. AIADMK,J ILAVENIL. BHAVANI BSP,D DESINGURAJAN. MNM,A MAHESWARI. NTK,RAJA PON. AKMK,V VIJAYAKUMAR. AMGRDMK,S PRIYADHARSHAN. ASHOK IND,C.H KUMAR. SAMBATH IND,K SUGUMAR. IND,Total Valid Votes,Rejected Votes,NOTA,Total Votes
1,1,390,393,5,4,74,2,2,1,0,1,872,0,4,876
2,2,286,468,20,7,37,6,0,1,0,5,830,0,10,840
3,3,285,399,3,6,32,33,0,3,0,0,761,0,5,766
4,4,294,380,2,2,83,13,0,0,1,0,775,0,1,776
5,5,156,214,4,4,64,1,1,0,0,1,445,0,0,445
6,5(A),153,237,5,3,37,3,1,0,1,1,441,0,1,442
7,6,245,199,1,1,29,4,0,0,0,1,480,0,3,483
8,7,133,159,1,3,40,6,0,1,0,0,343,0,4,347
9,8,236,260,0,7,60,1,1,0,0,0,565,0,6,571
10,9,237,256,2,1,48,9,1,0,0,0,554,0,2,556
11,10,244,465,3,0,20,7,0,7,1,2,749,0,4,753
12,11,95,251,1,2,13,3,0,0,0,0,365,0,3,368
13,12,299,431,5,7,34,8,0,1,1,3,789,0,14,803
14,13,300,468,6,6,41,16,2,1,0,1,841,0,3,844
15,14,289,388,5,6,41,6,1,1,0,2,739,0,3,742
16,15,277,371,9,1,39,6,1,0,0,1,705,0,1,706
17,16,362,257,3,6,31,38,0,0,0,0,697,0,5,702
18,17,344,352,3,1,65,19,1,1,0,1,787,0,8,795
19,18,296,259,2,12,41,25,0,0,0,0,635,0,3,638
20,19,202,196,0,7,49,13,0,16,1,0,484,0,2,486
21,19(A),201,239,2,8,30,9,0,20,0,0,509,0,1,510
22,20,291,263,2,5,53,24,0,1,2,0,641,0,11,652
23,21,175,206,3,6,44,10,0,8,0,0,452,0,3,455
24,21(A),178,229,1,7,26,8,2,4,1,1,457,0,4,461
25,22,372,433,3,4,66,6,0,2,0,1,887,0,2,889
26,23,196,271,0,10,81,12,0,3,2,0,575,0,2,577
27,24,303,309,1,14,56,5,0,1,1,1,691,0,4,695
28,25,331,145,1,11,46,2,0,1,0,0,537,0,0,537
29,26,347,142,0,11,64,3,0,2,1,0,570,0,0,570
30,27,285,267,2,4,17,3,0,20,1,0,599,0,5,604
31,28,613,166,1,2,14,6,0,0,0,0,802,0,0,802
32,29,234,199,0,2,85,2,1,1,0,0,524,0,3,527
33,29(A),257,192,2,3,44,4,0,0,0,1,503,0,1,504
34,30,347,179,0,2,80,15,0,0,0,1,624,0,1,625
35,31,277,295,3,11,63,6,1,1,0,0,657,0,7,664
36,32,247,294,3,6,45,3,0,0,0,0,598,0,4,602
37,33,298,249,3,4,122,15,0,1,0,0,692,0,4,696
38,34,154,159,5,1,14,4,0,0,0,0,337,0,3,340
39,35,379,311,5,10,87,5,1,0,0,2,800,0,1,801
40,36,341,368,2,6,84,5,1,1,0,1,809,0,4,813
41,37,282,136,1,10,25,0,0,0,0,0,454,0,4,458
42,38,369,212,3,21,41,7,0,4,0,0,657,0,2,659
43,39,307,123,1,6,55,4,0,1,0,0,497,0,1,498
44,39(A),323,131,2,6,27,13,0,0,0,0,502,0,1,503
45,40,406,362,1,6,42,7,3,7,0,1,835,0,7,842
46,41,460,187,2,8,50,2,1,4,0,0,714,0,2,716
47,42,427,401,0,4,53,3,0,6,0,0,894,0,2,896
48,43,341,277,3,3,59,9,1,31,0,4,728,0,4,732
49,44,237,234,12,0,21,16,1,0,0,0,521,0,2,523
50,44(A),215,258,6,3,17,12,0,1,1,1,514,0,4,518
51,45,358,333,2,6,64,30,0,2,0,2,797,0,6,803
52,46,256,342,1,7,58,6,2,91,1,0,764,0,2,766
53,47,224,187,0,4,24,10,0,6,1,0,456,0,0,456
54,48,269,334,3,15,55,10,0,1,2,2,691,0,3,694
55,49,349,382,6,7,75,30,1,13,2,0,865,0,1,866
56,50,217,124,4,4,11,2,0,10,1,0,373,0,2,375
57,51,177,223,0,2,65,25,2,1,0,1,496,0,1,497
58,52,291,306,3,2,58,12,0,3,0,3,678,0,10,688
59,53,377,261,2,3,117,18,1,1,4,1,785,0,6,791
60,54,216,150,3,2,19,6,0,5,2,1,404,0,0,404
61,55,125,301,1,3,37,1,0,0,0,0,468,0,4,472
62,56,230,281,2,11,33,3,0,1,0,0,561,0,3,564
63,57,366,359,2,8,42,14,0,1,0,3,795,0,5,800
64,58,255,142,3,13,18,11,1,0,0,0,443,0,0,443
65,59,271,277,18,5,61,13,0,0,2,0,647,0,8,655
66,60,238,289,2,4,18,3,0,0,0,1,555,0,4,559
67,61,264,135,1,6,46,6,0,0,0,0,458,0,2,460
68,62,325,343,8,25,55,10,2,1,1,0,770,0,5,775
69,63,264,162,1,8,74,5,2,1,1,0,518,0,4,522
70,63(A),295,192,2,7,24,3,0,2,0,1,526,0,5,531
71,64,299,253,5,10,46,2,1,0,0,1,617,0,4,621
72,65,240,347,9,2,51,11,0,0,0,0,660,0,0,660
73,66,445,367,4,8,72,9,1,6,1,0,913,0,3,916
74,67,372,274,2,17,48,22,0,1,0,0,736,0,5,741
75,68,195,236,3,3,40,10,1,2,0,0,490,0,6,496
76,68(A),159,250,4,1,18,8,2,5,1,3,451,0,5,456
77,69,397,368,1,10,91,9,0,0,0,1,877,0,4,881
78,70,195,365,5,4,58,5,0,1,0,2,635,0,1,636
79,71,96,289,2,4,51,12,0,0,0,0,454,0,7,461
80,71(A),89,331,1,8,16,8,1,0,0,0,454,0,1,455
81,72,337,386,3,1,27,5,1,6,0,2,768,0,4,772
82,73,309,305,3,6,34,3,3,0,1,1,665,0,6,671
83,74,296,260,0,18,55,8,0,0,0,0,637,0,5,642
84,75,206,282,3,6,37,3,0,1,0,1,539,0,2,541
85,76,421,239,2,13,101,21,0,0,0,1,798,0,1,799
86,77,347,212,4,5,88,20,1,0,0,1,678,0,0,678
87,78,225,291,3,3,45,57,1,0,0,0,625,0,1,626
88,79,319,328,4,28,81,43,0,0,1,0,804,0,6,810
89,80,350,329,0,5,51,3,0,0,0,4,742,0,4,746
90,81,204,172,1,6,56,5,0,0,0,2,446,0,3,449
91,81(A),190,225,1,4,35,5,0,0,1,1,462,0,5,467
92,82,228,245,1,8,54,11,0,0,0,2,549,0,2,551
93,83,292,224,4,10,81,7,0,5,0,0,623,0,3,626
94,84,212,374,6,7,39,4,2,13,0,3,660,0,4,664
95,85,196,504,3,8,78,26,3,1,2,5,826,0,10,836
96,86,145,286,3,12,51,8,1,0,0,3,509,0,3,512
97,87,244,247,3,6,57,10,1,0,1,2,571,0,3,574
98,88,136,91,0,5,16,29,0,1,0,0,278,0,1,279
99,89,240,318,1,11,59,5,0,0,1,1,636,0,2,638
100,90,301,307,12,5,51,4,1,2,1,2,686,0,3,689
101,91,191,392,3,15,47,13,0,1,0,3,665,0,4,669
102,92,97,256,2,10,33,1,1,0,0,0,400,0,4,404
103,93,521,226,1,13,36,2,0,1,0,0,800,0,2,802
104,94,315,243,9,9,50,6,0,0,0,0,632,0,3,635
105,95,190,194,1,16,64,19,0,0,0,0,484,0,5,489
106,95(A),157,216,2,12,28,13,1,0,1,0,430,0,4,434
107,96,249,176,2,7,26,9,1,1,1,3,475,0,4,479
108,97,367,222,4,19,78,2,0,5,1,2,700,0,8,708
109,98,332,293,2,9,89,9,1,2,1,0,738,0,6,744
110,99,190,222,3,13,43,4,0,0,0,0,475,0,3,478
111,99(A),156,293,2,18,36,8,0,0,1,0,514,0,9,523
112,100,213,195,2,26,40,18,2,1,0,0,497,0,8,505
113,101,134,134,1,6,26,6,0,2,0,1,310,0,3,313
114,102,198,112,0,18,54,8,0,2,2,0,394,0,6,400
115,102(A),178,109,0,23,31,2,1,1,0,0,345,0,4,349
116,103,347,210,3,24,43,13,0,1,0,1,642,0,7,649
117,104,281,133,1,2,28,3,0,2,1,1,452,0,4,456
118,105,140,152,1,16,30,11,0,0,0,0,350,0,7,357
119,105(A),128,151,2,17,20,13,0,1,0,0,332,0,4,336
120,106,303,129,2,22,49,16,1,0,0,2,524,0,2,526
121,107,222,151,1,19,48,8,1,0,0,0,450,0,6,456
122,107(A),206,183,4,19,29,7,2,0,1,1,452,0,4,456
123,108,238,221,3,17,32,6,0,0,0,1,518,0,5,523
124,109,291,143,3,10,50,2,1,1,0,0,501,0,5,506
125,110,151,149,0,25,26,5,0,0,0,0,356,0,2,358
126,111,299,229,1,53,68,14,0,0,0,1,665,0,4,669
127,112,200,129,0,16,41,4,0,0,0,1,391,0,4,395
128,112(A),177,143,1,17,28,5,0,0,1,0,372,0,0,372
129,113,241,139,2,20,63,2,0,0,0,1,468,0,7,475
130,113(A),206,129,4,20,34,2,2,0,1,0,398,0,6,404
131,114,153,148,2,17,38,5,1,0,0,0,364,0,6,370
132,114(A),172,166,6,19,27,3,0,1,0,0,394,0,3,397
133,115,205,115,4,26,25,0,1,1,0,0,377,0,7,384
134,116,125,45,0,8,19,3,0,0,0,0,200,0,2,202
135,117,204,73,4,13,28,1,0,1,0,0,324,0,4,328
136,117(A),181,97,4,22,23,3,1,0,0,0,331,0,6,337
137,118,247,99,3,19,41,3,0,0,0,0,412,0,2,414
138,118(A),198,111,1,24,24,1,0,1,0,1,361,0,0,361
139,119,197,160,0,17,51,6,1,3,0,0,435,0,1,436
140,119(A),191,190,1,19,41,3,0,1,0,1,447,0,8,455
141,120,287,223,4,15,56,3,1,2,0,1,592,0,6,598
142,121,225,138,1,14,33,8,0,0,0,0,419,0,3,422
143,121(A),251,184,2,4,26,7,3,1,0,0,478,0,5,483
144,122,304,325,4,38,63,13,2,0,0,0,749,0,4,753
145,123,258,188,0,11,30,16,1,1,1,1,507,0,4,511
146,124,243,217,3,25,64,9,0,4,1,0,566,0,6,572
147,125,235,212,0,2,19,7,0,0,0,0,475,0,6,481
148,126,208,150,1,45,38,3,2,1,0,0,448,0,5,453
149,127,272,179,1,36,52,10,0,2,0,0,552,0,5,557
150,128,216,137,1,24,46,5,0,1,0,0,430,0,6,436
151,128(A),179,125,1,28,36,2,0,3,0,0,374,0,5,379
152,129,250,200,0,28,44,9,2,0,0,1,534,0,9,543
153,130,206,197,1,35,51,12,1,0,0,0,503,0,9,512
154,131,177,173,0,22,26,5,0,2,0,0,405,0,4,409
155,132,231,171,3,13,37,6,1,3,0,0,465,0,8,473
156,132(A),202,202,0,11,18,6,0,0,0,1,440,0,7,447
157,133,294,314,8,18,31,10,0,0,0,1,676,0,7,683
158,134,346,296,2,16,68,14,0,0,0,0,742,0,2,744
159,135,293,317,3,36,114,13,2,0,0,0,778,0,10,788
160,136,186,123,1,13,74,16,0,2,1,0,416,0,1,417
161,136(A),248,127,3,10,47,11,0,0,1,0,447,0,6,453
162,137,104,68,0,15,39,5,0,0,0,0,231,0,2,233
163,138,168,327,5,10,37,3,0,0,1,1,552,0,4,556
164,139,181,166,0,14,85,15,0,0,0,0,461,0,2,463
165,139(A),178,194,1,21,43,7,1,1,0,0,446,0,7,453
166,140,318,229,1,29,89,9,1,0,0,2,678,0,6,684
167,141,247,186,4,8,29,46,0,0,1,1,522,0,4,526
168,142,300,201,1,3,49,25,0,0,0,0,579,0,3,582
169,143,188,255,0,17,60,5,0,0,0,1,526,0,8,534
170,143(A),185,289,4,10,22,4,0,0,0,1,515,0,3,518
171,144,177,235,0,9,56,2,0,1,0,0,480,0,4,484
172,144(A),171,250,2,14,40,1,0,0,1,1,480,0,7,487
173,145,153,242,0,20,52,7,1,2,0,0,477,0,4,481
174,145(A),163,282,4,16,26,4,0,0,0,1,496,0,6,502
175,146,266,265,0,0,31,0,0,0,0,1,563,0,2,565
176,147,259,259,3,12,60,13,0,0,0,2,608,0,5,613
177,148,260,160,0,9,72,28,0,1,0,0,530,0,7,537
178,148(A),249,196,5,3,41,15,2,0,2,1,514,0,2,516
179,149,287,208,1,23,135,2,2,4,0,1,663,0,1,664
180,150,193,139,0,3,82,0,0,6,0,0,423,0,3,426
181,151,102,85,2,1,17,0,0,0,0,0,207,0,3,210
182,152,372,260,1,17,61,1,1,0,0,0,713,0,4,717
183,153,248,147,0,23,40,1,0,0,0,0,459,0,3,462
184,154,416,213,7,8,69,5,2,0,0,1,721,0,2,723
185,155,205,229,0,12,107,0,0,1,1,1,556,0,3,559
186,155(A),173,276,3,19,51,4,3,0,0,0,529,0,3,532
187,156,226,167,3,5,106,17,0,0,0,1,525,0,4,529
188,156(A),234,217,2,4,54,8,0,0,0,3,522,0,6,528
189,157,408,290,4,28,92,6,1,1,0,0,830,0,2,832
190,158,291,145,0,17,59,3,0,7,0,2,524,0,10,534
191,159,477,169,5,24,68,10,1,0,1,0,755,0,5,760
192,160,278,140,2,20,51,3,1,1,2,2,500,0,5,505
193,161,309,181,5,56,82,7,1,0,0,0,641,0,6,647
194,162,253,54,1,11,54,4,0,0,0,1,378,0,5,383
195,162(A),252,47,4,18,38,4,0,0,0,0,363,0,5,368
196,163,168,167,0,29,47,12,0,0,0,0,423,0,3,426
197,163(A),148,150,1,21,34,7,0,0,0,1,362,0,3,365
198,164,257,229,1,55,36,3,0,1,0,0,582,0,9,591
199,165,218,188,3,45,58,7,0,1,0,0,520,0,5,525
200,166,230,190,1,49,46,1,0,1,0,0,518,0,6,524
201,167,232,239,0,48,62,1,0,0,1,0,583,0,7,590
202,168,145,157,0,44,48,9,1,0,0,0,404,0,5,409
203,168(A),143,184,2,36,29,4,1,0,2,1,402,0,7,409
204,169,150,122,0,101,56,4,0,0,0,1,434,0,3,437
205,169(A),164,150,0,66,24,2,0,0,0,0,406,0,3,409
206,170,221,98,0,24,40,3,0,0,1,3,390,0,6,396
207,170(A),212,84,2,20,17,2,2,0,0,1,340,0,1,341
208,171,352,66,0,4,38,8,0,0,0,0,468,0,1,469
209,171(A),310,80,1,8,26,4,0,0,0,0,429,0,1,430
210,172,350,134,3,24,79,5,0,0,1,0,596,0,3,599
211,173,58,64,1,14,11,5,0,0,0,0,153,0,5,158
212,174,562,142,2,15,64,4,2,0,0,2,793,0,4,797
213,175,276,128,2,17,32,10,0,0,0,0,465,0,2,467
214,176,205,178,7,18,54,9,0,0,1,0,472,0,3,475
215,176(A),179,198,8,18,28,12,0,0,0,0,443,0,1,444
216,177,508,191,5,10,54,4,0,0,0,1,773,0,6,779
217,178,161,105,1,25,47,2,1,1,0,0,343,0,2,345
218,179,253,216,16,30,73,5,5,1,0,0,599,0,10,609
219,180,337,258,5,24,66,8,9,0,1,1,709,0,4,713
220,181,169,153,0,37,51,3,2,1,0,0,416,0,5,421
221,182,172,188,4,17,48,4,2,0,0,0,435,0,3,438
222,182(A),159,279,0,19,21,1,1,0,0,4,484,0,1,485
223,183,331,200,12,15,61,6,2,1,1,1,630,0,6,636
224,184,192,150,8,25,80,2,0,0,0,0,457,0,6,463
225,185,293,123,10,28,87,0,1,0,0,2,544,0,6,550
226,185(A),266,134,5,19,70,0,4,0,0,0,498,0,4,502
227,186,135,50,0,21,30,2,0,0,0,0,238,0,1,239
228,187,217,236,1,20,46,2,1,0,0,2,525,0,5,530
229,188,240,118,0,21,103,9,1,0,0,1,493,0,3,496
230,188(A),270,135,2,22,52,11,0,1,1,3,497,0,5,502
231,189,322,143,7,33,76,7,0,1,0,0,589,0,6,595
232,190,141,142,1,37,27,2,0,0,0,0,350,0,4,354
233,191,276,156,5,6,49,3,1,1,1,1,499,0,3,502
234,192,305,307,1,18,88,3,1,0,1,3,727,0,8,735
235,193,297,285,2,19,122,8,1,0,0,1,735,0,9,744
236,194,312,262,1,19,96,1,0,2,0,0,693,0,1,694
237,195,231,161,3,33,65,5,0,0,0,0,498,0,7,505
238,196,212,146,5,48,52,2,0,1,0,0,466,0,3,469
239,197,204,122,3,45,66,1,0,1,0,0,442,0,5,447
240,198,413,246,3,10,108,4,0,0,0,2,786,0,8,794
241,199,216,146,2,6,53,2,1,0,0,0,426,0,7,433
242,199(A),222,206,1,8,30,6,0,0,0,3,476,0,5,481
243,200,294,306,1,10,80,7,0,0,1,7,706,0,9,715
244,201,236,206,0,12,58,1,1,0,0,1,515,0,5,520
245,202,211,111,7,9,77,1,0,0,0,0,416,0,3,419
246,202(A),239,129,3,7,42,1,0,0,0,0,421,0,6,427
247,203,478,209,6,6,66,7,0,0,0,2,774,0,6,780
248,204,357,183,1,9,108,1,0,0,0,1,660,0,3,663
249,205,267,133,1,16,55,2,0,0,0,1,475,0,2,477
250,206,351,204,2,46,73,2,1,0,0,1,680,0,4,684
251,207,293,283,2,40,58,5,0,1,0,2,684,0,2,686
252,208,295,257,1,18,68,8,0,0,0,1,648,0,5,653
253,209,219,157,2,10,43,0,0,0,1,1,433,0,1,434
254,209(A),204,202,4,12,19,1,0,0,0,0,442,0,1,443
255,210,315,215,1,37,71,7,1,0,0,1,648,0,9,657
256,211,398,177,1,6,29,1,1,0,1,0,614,0,3,617
257,212,258,184,1,16,34,0,0,0,0,1,494,0,1,495
258,213,160,108,1,7,36,2,0,0,0,1,315,0,3,318
259,214,221,153,0,8,60,4,0,0,0,2,448,0,2,450
260,214(A),249,208,1,0,38,1,1,0,0,0,498,0,2,500
261,215,330,265,1,10,84,4,0,0,1,1,696,0,3,699
262,216,183,180,1,9,69,1,0,0,0,1,444,0,3,447
263,216(A),177,220,1,12,39,0,0,0,0,0,449,0,4,453
264,217,290,56,3,34,45,6,0,0,2,0,436,0,4,440
265,218,287,87,1,14,68,7,0,1,1,0,466,0,5,471
266,218(A),280,93,0,9,39,9,0,1,0,1,432,0,2,434
267,219,417,158,4,21,52,8,1,1,0,0,662,0,2,664
268,220,474,219,5,27,65,6,1,0,0,0,797,0,3,800
269,221,301,116,4,26,46,5,0,0,0,0,498,0,1,499
270,221(A),343,110,3,12,20,2,0,0,0,0,490,0,5,495
271,222,440,104,8,24,101,3,0,0,0,0,680,0,0,680
272,223,319,292,5,16,103,5,0,0,1,3,744,0,8,752
273,224,224,160,0,6,53,0,1,0,0,0,444,0,1,445
274,224(A),235,192,3,5,27,0,1,0,1,0,464,0,3,467
275,225,205,204,2,12,57,2,1,0,0,0,483,0,6,489
276,225(A),189,254,3,10,38,2,1,0,0,0,497,0,6,503
277,226,197,141,0,9,56,2,1,0,0,1,407,0,1,408
278,226(A),210,154,0,5,34,5,0,0,1,1,410,0,1,411
279,227,289,234,0,21,74,4,1,1,1,0,625,0,1,626
280,228,204,284,2,4,106,5,1,0,1,0,607,0,4,611
281,229,182,141,1,14,80,7,0,0,0,1,426,0,2,428
282,230,264,239,2,12,115,9,0,0,0,0,641,0,7,648
283,231,388,201,2,4,72,5,1,0,0,1,674,0,4,678
284,232,189,271,2,14,115,9,0,1,1,1,603,0,4,607
285,233,206,131,2,30,38,5,0,0,0,0,412,0,7,419
286,234,264,192,3,48,100,7,3,1,1,0,619,0,9,628
287,235,148,134,1,50,31,1,0,0,0,0,365,0,2,367
288,236,237,146,1,21,67,4,1,0,2,0,479,0,8,487
289,237,132,190,1,19,68,6,0,0,0,0,416,0,3,419
290,237(A),149,172,1,25,42,2,1,0,1,1,394,0,1,395
291,238,198,257,4,22,106,7,1,1,0,3,599,0,4,603
292,239,169,96,1,37,75,7,0,0,0,1,386,0,5,391
293,239(A),165,114,1,31,53,5,1,1,0,1,372,0,4,376
294,240,173,129,1,33,62,6,0,0,0,1,405,0,4,409
295,240(A),167,135,2,27,47,4,1,0,0,0,383,0,4,387
296,241,148,203,0,10,48,8,0,0,0,0,417,0,7,424
297,241(A),149,209,0,14,15,3,1,1,0,1,393,0,1,394
298,242,67,310,6,6,8,8,0,2,1,0,408,0,2,410
299,243,222,272,28,7,34,15,0,0,2,4,584,0,10,594
300,244,252,236,6,13,41,8,0,0,0,1,557,0,0,557
301,245,156,280,2,23,38,11,0,1,0,1,512,0,12,524
302,245(A),157,284,2,23,21,3,1,0,0,2,493,0,7,500
303,246,153,229,3,13,63,9,0,0,0,1,471,0,5,476
304,246(A),133,230,4,10,34,5,0,0,0,1,417,0,6,423
305,247,255,156,19,2,25,5,0,0,0,1,463,0,1,464
306,247(A),246,233,12,5,13,6,0,0,0,1,516,0,1,517
307,248,187,239,2,18,39,13,0,0,0,0,498,0,6,504
308,249,118,210,1,22,41,3,0,3,0,0,398,0,5,403
309,249(A),106,238,3,7,23,0,0,0,0,0,377,0,8,385
310,250,323,363,0,11,53,14,0,0,1,0,765,0,7,772
311,251,134,261,1,2,35,8,0,3,0,1,445,0,3,448
312,252,309,360,1,14,52,2,0,1,0,1,740,0,11,751
313,253,65,653,3,4,33,9,2,2,0,4,775,0,13,788
314,254,221,426,2,2,50,19,0,0,0,0,720,0,1,721
315,255,314,425,1,8,26,9,1,0,1,2,787,0,6,793
316,256,251,274,3,27,38,7,0,1,0,2,603,0,5,608
317,257,320,284,0,5,40,33,0,1,0,1,684,0,1,685
318,258,230,185,1,7,45,13,0,0,0,0,481,0,2,483
319,258(A),222,233,1,3,11,8,0,0,0,0,478,0,0,478
320,259,252,293,0,9,27,5,1,0,0,0,587,0,2,589
321,260,279,168,2,5,42,5,0,0,0,1,502,0,4,506
322,261,129,219,1,4,24,1,0,0,0,0,378,0,2,380
323,262,202,207,0,20,79,5,0,0,0,1,514,0,5,519
324,262(A),189,244,2,21,38,0,0,2,0,2,498,0,2,500
325,263,341,191,3,6,41,5,0,0,2,2,591,0,3,594
326,264,254,285,3,4,56,1,2,0,1,0,606,0,2,608
327,265,173,182,1,5,16,0,0,0,0,1,378,0,2,380
328,266,310,451,3,13,87,6,1,0,2,7,880,0,10,890
329,267,181,152,0,3,30,3,1,0,0,1,371,0,1,372
330,268,350,335,2,7,43,12,0,0,1,3,753,0,6,759
331,269,266,358,0,6,68,4,0,0,0,1,703,0,6,709
332,270,299,257,2,22,82,6,0,3,0,0,671,0,5,676
333,271,176,186,0,11,40,5,1,1,0,0,420,0,3,423
334,272,260,387,1,27,40,1,0,0,0,0,716,0,5,721
335,273,340,319,0,32,38,3,2,1,0,2,737,0,13,750
336,274,274,309,3,6,37,11,0,0,1,1,642,0,5,647
337,275,134,260,0,4,36,3,0,0,0,1,438,0,5,443
338,275(A),101,316,0,2,9,2,0,0,1,3,434,0,4,438
339,276,260,412,5,12,61,9,0,0,1,0,760,0,3,763
340,277,239,175,2,3,48,10,0,0,0,0,477,0,6,483
341,278,245,366,1,23,47,3,0,0,0,0,685,0,2,687
342,279,431,312,0,5,39,12,0,0,0,0,799,0,5,804
343,280,388,333,7,6,79,21,1,0,0,1,836,0,6,842
344,281,252,253,2,2,49,2,0,0,0,1,561,0,1,562
345,282,365,274,9,8,62,7,0,0,0,0,725,0,6,731
346,283,363,193,5,2,48,8,0,0,0,1,620,0,6,626
347,284,186,225,0,7,35,12,0,0,0,0,465,0,3,468
348,284(A),154,265,2,3,9,5,0,0,0,4,442,0,0,442
349,285,196,242,3,10,27,2,0,2,1,3,486,0,6,492
350,286,251,367,0,13,33,8,1,1,1,1,676,0,7,683
351,287,319,490,4,4,68,22,0,0,0,5,912,0,6,918
352,288,132,209,0,14,33,11,1,1,0,0,401,0,2,403
353,289,423,300,2,6,62,54,0,1,0,1,849,0,2,851
354,290,281,332,4,23,62,12,0,2,0,1,717,0,3,720
355,291,167,250,0,33,29,3,0,0,0,0,482,0,1,483
356,292,167,165,0,12,29,2,0,0,1,1,377,0,6,383
357,292(A),196,190,1,11,18,2,1,1,0,0,420,0,3,423
358,293,319,311,3,6,82,5,1,0,0,0,727,0,0,727
359,294,133,254,4,9,29,1,0,0,2,0,432,0,0,432
360,295,302,416,8,4,47,21,0,0,1,0,799,0,3,802
361,296,197,295,2,14,66,12,0,0,0,3,589,0,4,593
362,297,186,267,1,12,41,13,0,0,0,3,523,0,3,526
363,298,77,114,0,19,15,2,0,0,0,0,227,0,3,230
364,299,230,191,4,11,86,3,0,0,0,1,526,0,1,527
365,299(A),230,253,1,5,39,4,0,1,1,2,536,0,3,539
366,300,295,212,10,10,72,17,0,1,0,1,618,0,5,623
367,301,197,170,12,1,25,19,0,0,0,0,424,0,1,425
368,302,182,74,3,9,63,0,0,0,0,0,331,0,2,333
369,303,276,213,4,24,127,4,0,0,0,1,649,0,4,653
370,304,188,93,8,14,83,2,0,1,1,0,390,0,2,392
371,305,272,171,7,25,69,0,0,0,0,1,545,0,5,550
372,306,186,183,2,4,57,3,0,0,0,0,435,0,4,439
373,306(A),167,218,5,3,24,5,0,0,1,1,424,0,2,426
374,307,349,351,54,5,53,3,1,0,0,1,817,0,2,819
375,308,429,221,42,7,71,10,1,2,0,1,784,0,9,793
376,309,205,331,4,12,54,13,3,0,0,1,623,0,17,640
377,310,321,314,11,11,74,10,0,0,0,4,745,0,4,749
